9.99775353	180
10.01793696	135
10.0381204	180
10.05830383	161
10.07848726	175
10.0986707	143
10.11885413	146
10.13903756	150
10.159221	163
10.17940443	149
10.19958786	180
10.2197713	159
10.23995473	159
10.26013816	175
10.2803216	190
10.30050503	162
10.32068846	167
10.3408719	178
10.36105533	200
10.38123876	201
10.4014222	190
10.42160563	155
10.44178906	154
10.4619725	160
10.48215593	186
10.50233936	171
10.5225228	177
10.54270623	201
10.56288966	139
10.5830731	178
10.60325653	144
10.62343996	194
10.6436234	165
10.66380683	175
10.68399026	203
10.7041737	172
10.72435713	167
10.74454057	167
10.764724	148
10.78490743	156
10.80509087	179
10.8252743	146
10.84545773	162
10.86564117	165
10.8858246	156
10.90600803	149
10.92619147	201
10.9463749	190
10.96655833	155
10.98674177	202
11.0069252	172
11.02710863	177
11.04729207	120
11.0674755	155
11.08765893	162
11.10784237	161
11.1280258	178
11.14820923	145
11.16839267	158
11.1885761	188
11.20875953	173
11.22894297	169
11.2491264	160
11.26930983	182
11.28949327	150
11.3096767	174
11.32986013	190
11.35004357	169
11.370227	140
11.39041043	147
11.41059387	189
11.4307773	173
11.45096073	154
11.47114417	178
11.4913276	156
11.51151103	168
11.53169447	136
11.5518779	150
11.57206133	185
11.59224477	153
11.6124282	131
11.63261163	171
11.65279507	150
11.6729785	171
11.69316193	165
11.71334537	143
11.7335288	182
11.75371223	158
11.77389567	145
11.7940791	154
11.81426253	137
11.83444597	147
11.8546294	132
11.87481283	151
11.89499627	127
11.9151797	152
11.93536313	153
11.95554657	138
11.97573	129
11.99591343	156
12.01609687	151
12.0362803	144
12.05646373	164
12.07664717	137
12.0968306	160
12.11701403	150
12.13719747	156
12.1573809	158
12.17756434	147
12.19774777	140
12.2179312	172
12.23811464	139
12.25829807	160
12.2784815	142
12.29866494	151
12.31884837	154
12.3390318	134
12.35921524	136
12.37939867	152
12.3995821	114
12.41976554	146
12.43994897	146
12.4601324	146
12.48031584	157
12.50049927	145
12.5206827	150
12.54086614	135
12.56104957	128
12.581233	142
12.60141644	145
12.62159987	141
12.6417833	147
12.66196674	149
12.68215017	141
12.7023336	150
12.72251704	145
12.74270047	155
12.7628839	167
12.78306734	132
12.80325077	168
12.8234342	155
12.84361764	139
12.86380107	120
12.8839845	131
12.90416794	138
12.92435137	150
12.9445348	139
12.96471824	142
12.98490167	130
13.0050851	149
13.02526854	142
13.04545197	152
13.0656354	148
13.08581884	159
13.10600227	123
13.1261857	147
13.14636914	159
13.16655257	151
13.186736	130
13.20691944	148
13.22710287	142
13.2472863	133
13.26746974	119
13.28765317	133
13.3078366	136
13.32802004	136
13.34820347	151
13.3683869	131
13.38857034	138
13.40875377	123
13.4289372	149
13.44912064	164
13.46930407	153
13.4894875	133
13.50967094	148
13.52985437	131
13.5500378	118
13.57022124	140
13.59040467	147
13.61058811	126
13.63077154	133
13.65095497	125
13.67113841	128
13.69132184	138
13.71150527	115
13.73168871	131
13.75187214	138
13.77205557	141
13.79223901	134
13.81242244	154
13.83260587	129
13.85278931	148
13.87297274	150
13.89315617	134
13.91333961	137
13.93352304	132
13.95370647	154
13.97388991	133
13.99407334	139
14.01425677	152
14.03444021	130
14.05462364	141
14.07480707	125
14.09499051	126
14.11517394	123
14.13535737	140
14.15554081	128
14.17572424	139
14.19590767	142
14.21609111	135
14.23627454	135
14.25645797	123
14.27664141	144
14.29682484	120
14.31700827	139
14.33719171	111
14.35737514	138
14.37755857	130
14.39774201	138
14.41792544	129
14.43810887	124
14.45829231	126
14.47847574	120
14.49865917	118
14.51884261	143
14.53902604	133
14.55920947	119
14.57939291	130
14.59957634	126
14.61975977	143
14.63994321	125
14.66012664	154
14.68031007	126
14.70049351	135
14.72067694	119
14.74086037	126
14.76104381	134
14.78122724	145
14.80141067	121
14.82159411	130
14.84177754	127
14.86196097	120
14.88214441	106
14.90232784	117
14.92251127	136
14.94269471	129
14.96287814	133
14.98306157	127
15.00324501	133
15.02342844	137
15.04361188	133
15.06379531	104
15.08397874	133
15.10416218	107
15.12434561	131
15.14452904	121
15.16471248	127
15.18489591	135
15.20507934	113
15.22526278	128
15.24544621	129
15.26562964	156
15.28581308	153
15.30599651	106
15.32617994	122
15.34636338	126
15.36654681	123
15.38673024	135
15.40691368	139
15.42709711	134
15.44728054	112
15.46746398	108
15.48764741	121
15.50783084	121
15.52801428	124
15.54819771	106
15.56838114	95
15.58856458	123
15.60874801	122
15.62893144	124
15.64911488	120
15.66929831	114
15.68948174	125
15.70966518	102
15.72984861	136
15.75003204	142
15.77021548	136
15.79039891	131
15.81058234	134
15.83076578	127
15.85094921	130
15.87113264	131
15.89131608	132
15.91149951	119
15.93168294	144
15.95186638	138
15.97204981	135
15.99223324	154
16.01241668	110
16.03260011	128
16.05278354	130
16.07296698	138
16.09315041	129
16.11333384	110
16.13351728	113
16.15370071	122
16.17388414	125
16.19406758	115
16.21425101	126
16.23443444	90
16.25461788	124
16.27480131	120
16.29498474	122
16.31516818	130
16.33535161	113
16.35553504	127
16.37571848	118
16.39590191	116
16.41608534	139
16.43626878	125
16.45645221	136
16.47663564	128
16.49681908	116
16.51700251	130
16.53718595	124
16.55736938	146
16.57755281	143
16.59773625	119
16.61791968	130
16.63810311	129
16.65828655	144
16.67846998	135
16.69865341	119
16.71883685	130
16.73902028	123
16.75920371	151
16.77938715	124
16.79957058	121
16.81975401	100
16.83993745	135
16.86012088	131
16.88030431	120
16.90048775	127
16.92067118	141
16.94085461	116
16.96103805	130
16.98122148	102
17.00140491	134
17.02158835	122
17.04177178	120
17.06195521	131
17.08213865	119
17.10232208	157
17.12250551	113
17.14268895	107
17.16287238	119
17.18305581	123
17.20323925	138
17.22342268	115
17.24360611	122
17.26378955	133
17.28397298	124
17.30415641	125
17.32433985	127
17.34452328	109
17.36470671	127
17.38489015	115
17.40507358	123
17.42525701	119
17.44544045	120
17.46562388	146
17.48580731	101
17.50599075	115
17.52617418	103
17.54635761	127
17.56654105	126
17.58672448	119
17.60690791	136
17.62709135	130
17.64727478	143
17.66745821	105
17.68764165	110
17.70782508	116
17.72800851	125
17.74819195	104
17.76837538	106
17.78855881	116
17.80874225	108
17.82892568	118
17.84910911	107
17.86929255	132
17.88947598	120
17.90965941	110
17.92984285	139
17.95002628	96
17.97020972	108
17.99039315	83
18.01057658	106
18.03076002	108
18.05094345	123
18.07112688	122
18.09131032	123
18.11149375	115
18.13167718	129
18.15186062	141
18.17204405	120
18.19222748	105
18.21241092	104
18.23259435	118
18.25277778	126
18.27296122	114
18.29314465	113
18.31332808	141
18.33351152	127
18.35369495	96
18.37387838	142
18.39406182	127
18.41424525	120
18.43442868	117
18.45461212	111
18.47479555	115
18.49497898	115
18.51516242	126
18.53534585	121
18.55552928	116
18.57571272	107
18.59589615	128
18.61607958	113
18.63626302	121
18.65644645	107
18.67662988	121
18.69681332	104
18.71699675	112
18.73718018	125
18.75736362	112
18.77754705	131
18.79773048	118
18.81791392	126
18.83809735	117
18.85828078	119
18.87846422	111
18.89864765	124
18.91883108	117
18.93901452	120
18.95919795	118
18.97938138	136
18.99956482	118
19.01974825	107
19.03993168	130
19.06011512	137
19.08029855	117
19.10048198	134
19.12066542	140
19.14084885	90
19.16103228	116
19.18121572	125
19.20139915	110
19.22158258	113
19.24176602	117
19.26194945	108
19.28213288	134
19.30231632	106
19.32249975	123
19.34268318	123
19.36286662	125
19.38305005	134
19.40323349	135
19.42341692	103
19.44360035	130
19.46378379	134
19.48396722	158
19.50415065	113
19.52433409	134
19.54451752	113
19.56470095	108
19.58488439	119
19.60506782	115
19.62525125	111
19.64543469	130
19.66561812	121
19.68580155	101
19.70598499	114
19.72616842	133
19.74635185	125
19.76653529	105
19.78671872	116
19.80690215	120
19.82708559	121
19.84726902	97
19.86745245	111
19.88763589	129
19.90781932	132
19.92800275	112
19.94818619	113
19.96836962	122
19.98855305	123
20.00873649	117
20.02891992	110
20.04910335	107
20.06928679	124
20.08947022	103
20.10965365	117
20.12983709	114
20.15002052	107
20.17020395	124
20.19038739	136
20.21057082	128
20.23075425	122
20.25093769	114
20.27112112	126
20.29130455	126
20.31148799	102
20.33167142	120
20.35185485	109
20.37203829	123
20.39222172	112
20.41240515	106
20.43258859	93
20.45277202	103
20.47295545	105
20.49313889	109
20.51332232	118
20.53350575	110
20.55368919	116
20.57387262	116
20.59405605	111
20.61423949	102
20.63442292	116
20.65460635	115
20.67478979	134
20.69497322	127
20.71515665	123
20.73534009	98
20.75552352	104
20.77570695	110
20.79589039	114
20.81607382	130
20.83625726	121
20.85644069	117
20.87662412	124
20.89680756	113
20.91699099	116
20.93717442	104
20.95735786	114
20.97754129	105
20.99772472	108
21.01790816	115
21.03809159	120
21.05827502	107
21.07845846	116
21.09864189	102
21.11882532	118
21.13900876	108
21.15919219	117
21.17937562	115
21.19955906	113
21.21974249	121
21.23992592	111
21.26010936	107
21.28029279	106
21.30047622	123
21.32065966	113
21.34084309	112
21.36102652	103
21.38120996	102
21.40139339	107
21.42157682	120
21.44176026	136
21.46194369	125
21.48212712	135
21.50231056	123
21.52249399	125
21.54267742	110
21.56286086	108
21.58304429	98
21.60322772	112
21.62341116	98
21.64359459	120
21.66377802	127
21.68396146	103
21.70414489	104
21.72432832	105
21.74451176	117
21.76469519	123
21.78487862	106
21.80506206	116
21.82524549	95
21.84542892	97
21.86561236	124
21.88579579	111
21.90597922	99
21.92616266	119
21.94634609	106
21.96652952	124
21.98671296	115
22.00689639	109
22.02707982	115
22.04726326	127
22.06744669	110
22.08763012	114
22.10781356	111
22.12799699	96
22.14818042	109
22.16836386	116
22.18854729	117
22.20873072	120
22.22891416	107
22.24909759	112
22.26928103	118
22.28946446	141
22.30964789	115
22.32983133	121
22.35001476	110
22.37019819	124
22.39038163	109
22.41056506	109
22.43074849	110
22.45093193	112
22.47111536	124
22.49129879	122
22.51148223	97
22.53166566	113
22.55184909	117
22.57203253	96
22.59221596	121
22.61239939	117
22.63258283	107
22.65276626	120
22.67294969	121
22.69313313	110
22.71331656	109
22.73349999	107
22.75368343	109
22.77386686	112
22.79405029	102
22.81423373	113
22.83441716	128
22.85460059	121
22.87478403	117
22.89496746	111
22.91515089	126
22.93533433	109
22.95551776	110
22.97570119	127
22.99588463	110
23.01606806	117
23.03625149	121
23.05643493	120
23.07661836	119
23.09680179	125
23.11698523	117
23.13716866	98
23.15735209	122
23.17753553	133
23.19771896	120
23.21790239	116
23.23808583	118
23.25826926	94
23.27845269	97
23.29863613	121
23.31881956	95
23.33900299	110
23.35918643	108
23.37936986	115
23.39955329	122
23.41973673	113
23.43992016	123
23.46010359	92
23.48028703	108
23.50047046	131
23.52065389	121
23.54083733	111
23.56102076	111
23.58120419	105
23.60138763	129
23.62157106	122
23.64175449	103
23.66193793	129
23.68212136	103
23.7023048	122
23.72248823	137
23.74267166	130
23.7628551	122
23.78303853	125
23.80322196	119
23.8234054	135
23.84358883	107
23.86377226	134
23.8839557	130
23.90413913	110
23.92432256	125
23.944506	102
23.96468943	127
23.98487286	126
24.0050563	109
24.02523973	120
24.04542316	99
24.0656066	111
24.08579003	120
24.10597346	134
24.1261569	124
24.14634033	140
24.16652376	117
24.1867072	127
24.20689063	139
24.22707406	128
24.2472575	129
24.26744093	134
24.28762436	151
24.3078078	130
24.32799123	150
24.34817466	150
24.3683581	155
24.38854153	169
24.40872496	195
24.4289084	198
24.44909183	232
24.46927526	220
24.4894587	265
24.50964213	279
24.52982556	286
24.550009	263
24.57019243	280
24.59037586	281
24.6105593	277
24.63074273	299
24.65092616	305
24.6711096	318
24.69129303	314
24.71147646	309
24.7316599	331
24.75184333	296
24.77202676	319
24.7922102	337
24.81239363	448
24.83257706	407
24.8527605	434
24.87294393	452
24.89312736	498
24.9133108	527
24.93349423	565
24.95367766	578
24.9738611	637
24.99404453	653
25.01422796	766
25.0344114	827
25.05459483	938
25.07477826	1023
25.0949617	1215
25.11514513	1383
25.13532857	1787
25.155512	2367
25.17569543	3180
25.19587887	4616
25.2160623	7083
25.23624573	10585
25.25642917	15793
25.2766126	21494
25.29679603	26309
25.31697947	28333
25.3371629	26766
25.35734633	22423
25.37752977	17587
25.3977132	12994
25.41789663	8774
25.43808007	5335
25.4582635	3274
25.47844693	2167
25.49863037	1683
25.5188138	1295
25.53899723	1121
25.55918067	1073
25.5793641	857
25.59954753	754
25.61973097	686
25.6399144	693
25.66009783	558
25.68028127	535
25.7004647	516
25.72064813	417
25.74083157	421
25.761015	388
25.78119843	349
25.80138187	338
25.8215653	313
25.84174873	293
25.86193217	323
25.8821156	318
25.90229903	275
25.92248247	279
25.9426659	269
25.96284933	254
25.98303277	230
26.0032162	258
26.02339963	273
26.04358307	254
26.0637665	230
26.08394993	235
26.10413337	227
26.1243168	223
26.14450023	204
26.16468367	218
26.1848671	205
26.20505053	237
26.22523397	225
26.2454174	239
26.26560083	219
26.28578427	201
26.3059677	187
26.32615113	195
26.34633457	192
26.366518	188
26.38670143	200
26.40688487	202
26.4270683	181
26.44725173	170
26.46743517	200
26.4876186	187
26.50780203	173
26.52798547	165
26.5481689	208
26.56835233	186
26.58853577	190
26.6087192	182
26.62890264	168
26.64908607	176
26.6692695	186
26.68945294	187
26.70963637	171
26.7298198	214
26.75000324	190
26.77018667	186
26.7903701	171
26.81055354	190
26.83073697	194
26.8509204	145
26.87110384	149
26.89128727	165
26.9114707	158
26.93165414	176
26.95183757	147
26.972021	163
26.99220444	157
27.01238787	164
27.0325713	160
27.05275474	171
27.07293817	194
27.0931216	171
27.11330504	167
27.13348847	157
27.1536719	154
27.17385534	157
27.19403877	167
27.2142222	161
27.23440564	144
27.25458907	139
27.2747725	141
27.29495594	159
27.31513937	143
27.3353228	157
27.35550624	198
27.37568967	157
27.3958731	197
27.41605654	180
27.43623997	174
27.4564234	169
27.47660684	169
27.49679027	163
27.5169737	186
27.53715714	141
27.55734057	163
27.577524	159
27.59770744	164
27.61789087	138
27.6380743	125
27.65825774	144
27.67844117	152
27.6986246	170
27.71880804	130
27.73899147	143
27.7591749	147
27.77935834	143
27.79954177	173
27.8197252	142
27.83990864	156
27.86009207	134
27.8802755	142
27.90045894	150
27.92064237	152
27.9408258	141
27.96100924	123
27.98119267	134
28.0013761	148
28.02155954	130
28.04174297	129
28.06192641	147
28.08210984	149
28.10229327	114
28.12247671	143
28.14266014	140
28.16284357	136
28.18302701	118
28.20321044	133
28.22339387	107
28.24357731	113
28.26376074	134
28.28394417	132
28.30412761	135
28.32431104	102
28.34449447	135
28.36467791	120
28.38486134	120
28.40504477	124
28.42522821	134
28.44541164	123
28.46559507	111
28.48577851	123
28.50596194	157
28.52614537	137
28.54632881	130
28.56651224	128
28.58669567	118
28.60687911	130
28.62706254	127
28.64724597	143
28.66742941	122
28.68761284	113
28.70779627	136
28.72797971	133
28.74816314	98
28.76834657	137
28.78853001	127
28.80871344	118
28.82889687	138
28.84908031	118
28.86926374	131
28.88944717	120
28.90963061	106
28.92981404	117
28.94999747	104
28.97018091	135
28.99036434	114
29.01054777	94
29.03073121	133
29.05091464	128
29.07109807	117
29.09128151	103
29.11146494	106
29.13164837	133
29.15183181	104
29.17201524	107
29.19219867	114
29.21238211	100
29.23256554	99
29.25274897	111
29.27293241	134
29.29311584	107
29.31329927	118
29.33348271	116
29.35366614	117
29.37384957	108
29.39403301	124
29.41421644	104
29.43439987	107
29.45458331	111
29.47476674	113
29.49495018	134
29.51513361	94
29.53531704	118
29.55550048	108
29.57568391	116
29.59586734	91
29.61605078	104
29.63623421	99
29.65641764	104
29.67660108	101
29.69678451	116
29.71696794	94
29.73715138	119
29.75733481	105
29.77751824	105
29.79770168	110
29.81788511	100
29.83806854	119
29.85825198	108
29.87843541	103
29.89861884	92
29.91880228	95
29.93898571	94
29.95916914	111
29.97935258	103
29.99953601	89
30.01971944	95
30.03990288	99
30.06008631	106
30.08026974	95
30.10045318	107
30.12063661	113
30.14082004	88
30.16100348	91
30.18118691	67
30.20137034	99
30.22155378	116
30.24173721	104
30.26192064	103
30.28210408	106
30.30228751	103
30.32247094	119
30.34265438	91
30.36283781	94
30.38302124	90
30.40320468	75
30.42338811	83
30.44357154	90
30.46375498	106
30.48393841	110
30.50412184	97
30.52430528	93
30.54448871	92
30.56467214	99
30.58485558	97
30.60503901	106
30.62522244	83
30.64540588	90
30.66558931	96
30.68577274	120
30.70595618	96
30.72613961	88
30.74632304	88
30.76650648	109
30.78668991	106
30.80687334	109
30.82705678	97
30.84724021	109
30.86742364	101
30.88760708	82
30.90779051	103
30.92797395	96
30.94815738	99
30.96834081	111
30.98852425	100
31.00870768	79
31.02889111	85
31.04907455	87
31.06925798	93
31.08944141	106
31.10962485	108
31.12980828	83
31.14999171	114
31.17017515	84
31.19035858	94
31.21054201	90
31.23072545	93
31.25090888	91
31.27109231	97
31.29127575	90
31.31145918	94
31.33164261	90
31.35182605	85
31.37200948	100
31.39219291	92
31.41237635	105
31.43255978	92
31.45274321	102
31.47292665	91
31.49311008	90
31.51329351	85
31.53347695	80
31.55366038	97
31.57384381	82
31.59402725	92
31.61421068	71
31.63439411	100
31.65457755	113
31.67476098	87
31.69494441	91
31.71512785	87
31.73531128	101
31.75549471	101
31.77567815	100
31.79586158	89
31.81604501	99
31.83622845	84
31.85641188	96
31.87659531	89
31.89677875	109
31.91696218	105
31.93714561	92
31.95732905	93
31.97751248	90
31.99769591	97
32.01787935	84
32.03806278	94
32.05824621	84
32.07842965	87
32.09861308	82
32.11879651	75
32.13897995	98
32.15916338	94
32.17934681	81
32.19953025	79
32.21971368	66
32.23989711	85
32.26008055	82
32.28026398	68
32.30044741	86
32.32063085	90
32.34081428	86
32.36099772	80
32.38118115	94
32.40136458	81
32.42154802	88
32.44173145	106
32.46191488	84
32.48209832	95
32.50228175	76
32.52246518	73
32.54264862	78
32.56283205	86
32.58301548	100
32.60319892	92
32.62338235	81
32.64356578	87
32.66374922	88
32.68393265	66
32.70411608	89
32.72429952	65
32.74448295	89
32.76466638	80
32.78484982	88
32.80503325	78
32.82521668	56
32.84540012	67
32.86558355	89
32.88576698	79
32.90595042	78
32.92613385	90
32.94631728	88
32.96650072	88
32.98668415	80
33.00686758	94
33.02705102	84
33.04723445	80
33.06741788	95
33.08760132	71
33.10778475	83
33.12796818	82
33.14815162	82
33.16833505	76
33.18851848	80
33.20870192	82
33.22888535	84
33.24906878	76
33.26925222	74
33.28943565	87
33.30961908	80
33.32980252	72
33.34998595	77
33.37016938	87
33.39035282	74
33.41053625	84
33.43071968	83
33.45090312	88
33.47108655	84
33.49126998	100
33.51145342	76
33.53163685	80
33.55182028	78
33.57200372	89
33.59218715	106
33.61237058	85
33.63255402	77
33.65273745	89
33.67292088	73
33.69310432	73
33.71328775	79
33.73347118	84
33.75365462	100
33.77383805	91
33.79402149	91
33.81420492	86
33.83438835	71
33.85457179	76
33.87475522	79
33.89493865	80
33.91512209	79
33.93530552	89
33.95548895	69
33.97567239	79
33.99585582	76
34.01603925	75
34.03622269	95
34.05640612	81
34.07658955	90
34.09677299	84
34.11695642	81
34.13713985	79
34.15732329	89
34.17750672	75
34.19769015	88
34.21787359	84
34.23805702	85
34.25824045	83
34.27842389	81
34.29860732	84
34.31879075	77
34.33897419	69
34.35915762	84
34.37934105	70
34.39952449	74
34.41970792	78
34.43989135	84
34.46007479	77
34.48025822	88
34.50044165	91
34.52062509	92
34.54080852	82
34.56099195	74
34.58117539	81
34.60135882	69
34.62154225	100
34.64172569	92
34.66190912	77
34.68209255	91
34.70227599	89
34.72245942	98
34.74264285	73
34.76282629	75
34.78300972	84
34.80319315	78
34.82337659	90
34.84356002	67
34.86374345	90
34.88392689	85
34.90411032	91
34.92429375	68
34.94447719	88
34.96466062	72
34.98484405	79
35.00502749	74
35.02521092	69
35.04539435	99
35.06557779	79
35.08576122	84
35.10594465	77
35.12612809	90
35.14631152	64
35.16649495	92
35.18667839	78
35.20686182	61
35.22704526	86
35.24722869	70
35.26741212	89
35.28759556	98
35.30777899	69
35.32796242	65
35.34814586	84
35.36832929	84
35.38851272	84
35.40869616	85
35.42887959	88
35.44906302	84
35.46924646	100
35.48942989	73
35.50961332	81
35.52979676	73
35.54998019	83
35.57016362	77
35.59034706	74
35.61053049	87
35.63071392	84
35.65089736	87
35.67108079	83
35.69126422	84
35.71144766	83
35.73163109	80
35.75181452	95
35.77199796	81
35.79218139	92
35.81236482	93
35.83254826	100
35.85273169	83
35.87291512	85
35.89309856	84
35.91328199	79
35.93346542	81
35.95364886	91
35.97383229	88
35.99401572	103
36.01419916	107
36.03438259	99
36.05456602	108
36.07474946	100
36.09493289	102
36.11511632	92
36.13529976	78
36.15548319	85
36.17566662	92
36.19585006	94
36.21603349	102
36.23621692	83
36.25640036	84
36.27658379	100
36.29676722	83
36.31695066	94
36.33713409	92
36.35731752	98
36.37750096	94
36.39768439	95
36.41786782	104
36.43805126	115
36.45823469	114
36.47841812	98
36.49860156	115
36.51878499	92
36.53896842	121
36.55915186	125
36.57933529	105
36.59951872	120
36.61970216	110
36.63988559	113
36.66006902	140
36.68025246	146
36.70043589	130
36.72061933	168
36.74080276	159
36.76098619	173
36.78116963	194
36.80135306	234
36.82153649	332
36.84171993	337
36.86190336	532
36.88208679	752
36.90227023	968
36.92245366	1195
36.94263709	1354
36.96282053	1424
36.98300396	1259
37.00318739	1098
37.02337083	940
37.04355426	840
37.06373769	725
37.08392113	603
37.10410456	384
37.12428799	299
37.14447143	245
37.16465486	221
37.18483829	168
37.20502173	196
37.22520516	148
37.24538859	174
37.26557203	167
37.28575546	165
37.30593889	169
37.32612233	167
37.34630576	150
37.36648919	209
37.38667263	164
37.40685606	188
37.42703949	198
37.44722293	185
37.46740636	216
37.48758979	225
37.50777323	236
37.52795666	233
37.54814009	254
37.56832353	316
37.58850696	368
37.60869039	431
37.62887383	515
37.64905726	722
37.66924069	939
37.68942413	1269
37.70960756	1860
37.72979099	2580
37.74997443	3467
37.77015786	4340
37.79034129	4741
37.81052473	4588
37.83070816	4040
37.85089159	3407
37.87107503	3000
37.89125846	2701
37.91144189	2201
37.93162533	1609
37.95180876	1135
37.97199219	781
37.99217563	564
38.01235906	461
38.03254249	356
38.05272593	296
38.07290936	252
38.09309279	257
38.11327623	223
38.13345966	225
38.1536431	216
38.17382653	197
38.19400996	184
38.2141934	172
38.23437683	203
38.25456026	163
38.2747437	170
38.29492713	185
38.31511056	173
38.335294	186
38.35547743	196
38.37566086	220
38.3958443	213
38.41602773	308
38.43621116	301
38.4563946	415
38.47657803	555
38.49676146	729
38.5169449	1051
38.53712833	1306
38.55731176	1510
38.5774952	1498
38.59767863	1396
38.61786206	1194
38.6380455	945
38.65822893	885
38.67841236	797
38.6985958	694
38.71877923	495
38.73896266	317
38.7591461	266
38.77932953	196
38.79951296	179
38.8196964	150
38.83987983	136
38.86006326	142
38.8802467	128
38.90043013	98
38.92061356	129
38.940797	128
38.96098043	127
38.98116386	115
39.0013473	120
39.02153073	106
39.04171416	106
39.0618976	100
39.08208103	100
39.10226446	102
39.1224479	110
39.14263133	97
39.16281476	102
39.1829982	82
39.20318163	111
39.22336506	91
39.2435485	95
39.26373193	75
39.28391536	101
39.3040988	105
39.32428223	91
39.34446566	99
39.3646491	97
39.38483253	83
39.40501596	89
39.4251994	99
39.44538283	88
39.46556626	97
39.4857497	81
39.50593313	80
39.52611656	84
39.5463	92
39.56648343	104
39.58666687	85
39.6068503	85
39.62703373	91
39.64721717	96
39.6674006	84
39.68758403	90
39.70776747	80
39.7279509	101
39.74813433	94
39.76831777	87
39.7885012	89
39.80868463	85
39.82886807	89
39.8490515	109
39.86923493	103
39.88941837	83
39.9096018	81
39.92978523	91
39.94996867	99
39.9701521	97
39.99033553	78
40.01051897	86
40.0307024	99
40.05088583	75
40.07106927	96
40.0912527	87
40.11143613	77
40.13161957	87
40.151803	87
40.17198643	80
40.19216987	93
40.2123533	88
40.23253673	91
40.25272017	84
40.2729036	77
40.29308703	89
40.31327047	84
40.3334539	71
40.35363733	73
40.37382077	70
40.3940042	76
40.41418763	80
40.43437107	77
40.4545545	86
40.47473793	78
40.49492137	82
40.5151048	78
40.53528823	74
40.55547167	86
40.5756551	87
40.59583853	73
40.61602197	83
40.6362054	88
40.65638883	91
40.67657227	76
40.6967557	79
40.71693913	76
40.73712257	76
40.757306	67
40.77748943	72
40.79767287	94
40.8178563	75
40.83803973	76
40.85822317	75
40.8784066	73
40.89859003	83
40.91877347	91
40.9389569	61
40.95914033	82
40.97932377	66
40.9995072	80
41.01969064	75
41.03987407	97
41.0600575	88
41.08024094	61
41.10042437	92
41.1206078	92
41.14079124	74
41.16097467	82
41.1811581	76
41.20134154	92
41.22152497	66
41.2417084	89
41.26189184	89
41.28207527	84
41.3022587	89
41.32244214	81
41.34262557	81
41.362809	88
41.38299244	87
41.40317587	75
41.4233593	72
41.44354274	75
41.46372617	74
41.4839096	78
41.50409304	73
41.52427647	88
41.5444599	86
41.56464334	78
41.58482677	80
41.6050102	84
41.62519364	82
41.64537707	79
41.6655605	79
41.68574394	78
41.70592737	82
41.7261108	72
41.74629424	80
41.76647767	96
41.7866611	96
41.80684454	82
41.82702797	76
41.8472114	82
41.86739484	75
41.88757827	82
41.9077617	69
41.92794514	64
41.94812857	71
41.968312	77
41.98849544	74
42.00867887	62
42.0288623	70
42.04904574	71
42.06922917	85
42.0894126	71
42.10959604	68
42.12977947	78
42.1499629	68
42.17014634	74
42.19032977	63
42.2105132	63
42.23069664	93
42.25088007	79
42.2710635	70
42.29124694	74
42.31143037	76
42.3316138	77
42.35179724	61
42.37198067	75
42.3921641	82
42.41234754	59
42.43253097	86
42.45271441	73
42.47289784	68
42.49308127	78
42.51326471	67
42.53344814	92
42.55363157	67
42.57381501	64
42.59399844	79
42.61418187	78
42.63436531	61
42.65454874	64
42.67473217	77
42.69491561	81
42.71509904	81
42.73528247	64
42.75546591	56
42.77564934	75
42.79583277	75
42.81601621	62
42.83619964	73
42.85638307	67
42.87656651	64
42.89674994	66
42.91693337	74
42.93711681	77
42.95730024	69
42.97748367	62
42.99766711	76
43.01785054	71
43.03803397	70
43.05821741	79
43.07840084	84
43.09858427	71
43.11876771	72
43.13895114	65
43.15913457	67
43.17931801	72
43.19950144	73
43.21968487	60
43.23986831	63
43.26005174	90
43.28023517	82
43.30041861	68
43.32060204	81
43.34078547	76
43.36096891	83
43.38115234	76
43.40133577	84
43.42151921	67
43.44170264	71
43.46188607	65
43.48206951	83
43.50225294	58
43.52243637	67
43.54261981	63
43.56280324	66
43.58298667	65
43.60317011	62
43.62335354	55
43.64353697	73
43.66372041	74
43.68390384	78
43.70408727	57
43.72427071	51
43.74445414	73
43.76463757	87
43.78482101	65
43.80500444	81
43.82518787	61
43.84537131	66
43.86555474	73
43.88573818	68
43.90592161	72
43.92610504	72
43.94628848	64
43.96647191	77
43.98665534	75
44.00683878	62
44.02702221	80
44.04720564	71
44.06738908	66
44.08757251	77
44.10775594	61
44.12793938	63
44.14812281	69
44.16830624	62
44.18848968	79
44.20867311	73
44.22885654	62
44.24903998	74
44.26922341	63
44.28940684	78
44.30959028	67
44.32977371	62
44.34995714	67
44.37014058	73
44.39032401	81
44.41050744	62
44.43069088	72
44.45087431	72
44.47105774	77
44.49124118	58
44.51142461	66
44.53160804	61
44.55179148	61
44.57197491	67
44.59215834	63
44.61234178	69
44.63252521	62
44.65270864	70
44.67289208	68
44.69307551	62
44.71325894	76
44.73344238	80
44.75362581	77
44.77380924	62
44.79399268	53
44.81417611	73
44.83435954	70
44.85454298	63
44.87472641	58
44.89490984	79
44.91509328	73
44.93527671	73
44.95546014	73
44.97564358	74
44.99582701	74
45.01601044	71
45.03619388	69
45.05637731	65
45.07656074	72
45.09674418	76
45.11692761	81
45.13711104	71
45.15729448	75
45.17747791	76
45.19766134	72
45.21784478	63
45.23802821	75
45.25821164	65
45.27839508	73
45.29857851	69
45.31876195	61
45.33894538	62
45.35912881	52
45.37931225	77
45.39949568	65
45.41967911	69
45.43986255	74
45.46004598	70
45.48022941	60
45.50041285	60
45.52059628	66
45.54077971	56
45.56096315	75
45.58114658	71
45.60133001	80
45.62151345	73
45.64169688	72
45.66188031	63
45.68206375	76
45.70224718	70
45.72243061	73
45.74261405	72
45.76279748	63
45.78298091	67
45.80316435	85
45.82334778	84
45.84353121	61
45.86371465	58
45.88389808	86
45.90408151	70
45.92426495	56
45.94444838	52
45.96463181	76
45.98481525	62
46.00499868	70
46.02518211	60
46.04536555	75
46.06554898	78
46.08573241	69
46.10591585	65
46.12609928	67
46.14628271	65
46.16646615	61
46.18664958	69
46.20683301	83
46.22701645	74
46.24719988	87
46.26738331	71
46.28756675	77
46.30775018	85
46.32793361	95
46.34811705	97
46.36830048	88
46.38848391	95
46.40866735	82
46.42885078	88
46.44903421	95
46.46921765	87
46.48940108	85
46.50958451	83
46.52976795	100
46.54995138	63
46.57013481	87
46.59031825	81
46.61050168	98
46.63068511	81
46.65086855	92
46.67105198	91
46.69123541	112
46.71141885	101
46.73160228	100
46.75178571	94
46.77196915	93
46.79215258	81
46.81233602	98
46.83251945	99
46.85270288	95
46.87288632	90
46.89306975	100
46.91325318	100
46.93343662	93
46.95362005	101
46.97380348	99
46.99398692	100
47.01417035	101
47.03435378	91
47.05453722	110
47.07472065	78
47.09490408	97
47.11508752	85
47.13527095	108
47.15545438	80
47.17563782	75
47.19582125	101
47.21600468	78
47.23618812	86
47.25637155	98
47.27655498	99
47.29673842	108
47.31692185	93
47.33710528	98
47.35728872	112
47.37747215	111
47.39765558	112
47.41783902	118
47.43802245	105
47.45820588	110
47.47838932	115
47.49857275	117
47.51875618	116
47.53893962	105
47.55912305	147
47.57930648	145
47.59948992	152
47.61967335	174
47.63985678	197
47.66004022	183
47.68022365	200
47.70040708	234
47.72059052	241
47.74077395	262
47.76095738	299
47.78114082	355
47.80132425	377
47.82150768	428
47.84169112	456
47.86187455	536
47.88205798	733
47.90224142	1021
47.92242485	1398
47.94260828	2011
47.96279172	2747
47.98297515	3826
48.00315858	4861
48.02334202	5646
48.04352545	5719
48.06370888	4927
48.08389232	3992
48.10407575	3373
48.12425918	3195
48.14444262	3246
48.16462605	3093
48.18480948	2633
48.20499292	1908
48.22517635	1250
48.24535979	878
48.26554322	521
48.28572665	432
48.30591009	385
48.32609352	315
48.34627695	319
48.36646039	253
48.38664382	239
48.40682725	219
48.42701069	169
48.44719412	156
48.46737755	160
48.48756099	153
48.50774442	147
48.52792785	139
48.54811129	127
48.56829472	134
48.58847815	123
48.60866159	120
48.62884502	108
48.64902845	98
48.66921189	103
48.68939532	99
48.70957875	105
48.72976219	112
48.74994562	106
48.77012905	96
48.79031249	102
48.81049592	100
48.83067935	106
48.85086279	90
48.87104622	119
48.89122965	113
48.91141309	93
48.93159652	100
48.95177995	90
48.97196339	97
48.99214682	81
49.01233025	85
49.03251369	88
49.05269712	78
49.07288055	84
49.09306399	91
49.11324742	98
49.13343085	81
49.15361429	77
49.17379772	84
49.19398115	86
49.21416459	91
49.23434802	89
49.25453145	74
49.27471489	75
49.29489832	84
49.31508175	95
49.33526519	94
49.35544862	93
49.37563205	95
49.39581549	91
49.41599892	80
49.43618235	89
49.45636579	95
49.47654922	84
49.49673265	91
49.51691609	86
49.53709952	76
49.55728295	74
49.57746639	70
49.59764982	76
49.61783325	83
49.63801669	80
49.65820012	70
49.67838356	86
49.69856699	92
49.71875042	77
49.73893386	85
49.75911729	76
49.77930072	87
49.79948416	89
49.81966759	65
49.83985102	64
49.86003446	73
49.88021789	81
49.90040132	65
49.92058476	78
49.94076819	62
49.96095162	71
49.98113506	81
50.00131849	64
50.02150192	86
50.04168536	81
50.06186879	67
50.08205222	77
50.10223566	85
50.12241909	87
50.14260252	76
50.16278596	73
50.18296939	64
50.20315282	62
50.22333626	72
50.24351969	80
50.26370312	87
50.28388656	70
50.30406999	78
50.32425342	90
50.34443686	68
50.36462029	69
50.38480372	70
50.40498716	59
50.42517059	70
50.44535402	78
50.46553746	68
50.48572089	75
50.50590432	73
50.52608776	73
50.54627119	68
50.56645462	57
50.58663806	82
50.60682149	72
50.62700492	68
50.64718836	87
50.66737179	72
50.68755522	66
50.70773866	71
50.72792209	73
50.74810552	75
50.76828896	70
50.78847239	68
50.80865582	74
50.82883926	73
50.84902269	79
50.86920612	65
50.88938956	71
50.90957299	75
50.92975642	63
50.94993986	68
50.97012329	71
50.99030672	73
51.01049016	75
51.03067359	48
51.05085702	64
51.07104046	87
51.09122389	81
51.11140733	70
51.13159076	64
51.15177419	67
51.17195763	77
51.19214106	70
51.21232449	71
51.23250793	86
51.25269136	68
51.27287479	77
51.29305823	71
51.31324166	63
51.33342509	67
51.35360853	68
51.37379196	65
51.39397539	75
51.41415883	68
51.43434226	70
51.45452569	66
51.47470913	68
51.49489256	60
51.51507599	65
51.53525943	65
51.55544286	64
51.57562629	74
51.59580973	72
51.61599316	74
51.63617659	65
51.65636003	72
51.67654346	74
51.69672689	72
51.71691033	70
51.73709376	59
51.75727719	72
51.77746063	73
51.79764406	76
51.81782749	72
51.83801093	78
51.85819436	73
51.87837779	82
51.89856123	83
51.91874466	71
51.93892809	72
51.95911153	80
51.97929496	75
51.99947839	89
52.01966183	79
52.03984526	69
52.06002869	77
52.08021213	68
52.10039556	74
52.12057899	95
52.14076243	80
52.16094586	77
52.18112929	73
52.20131273	83
52.22149616	78
52.24167959	59
52.26186303	75
52.28204646	77
52.30222989	81
52.32241333	72
52.34259676	90
52.36278019	72
52.38296363	82
52.40314706	89
52.42333049	86
52.44351393	87
52.46369736	87
52.48388079	79
52.50406423	74
52.52424766	85
52.5444311	89
52.56461453	69
52.58479796	85
52.6049814	71
52.62516483	92
52.64534826	78
52.6655317	74
52.68571513	85
52.70589856	75
52.726082	91
52.74626543	85
52.76644886	87
52.7866323	87
52.80681573	85
52.82699916	83
52.8471826	80
52.86736603	90
52.88754946	83
52.9077329	92
52.92791633	88
52.94809976	87
52.9682832	87
52.98846663	83
53.00865006	86
53.0288335	88
53.04901693	109
53.06920036	93
53.0893838	100
53.10956723	91
53.12975066	90
53.1499341	97
53.17011753	112
53.19030096	97
53.2104844	105
53.23066783	88
53.25085126	90
53.2710347	102
53.29121813	120
53.31140156	104
53.331585	104
53.35176843	116
53.37195186	132
53.3921353	105
53.41231873	127
53.43250216	120
53.4526856	147
53.47286903	117
53.49305246	122
53.5132359	166
53.53341933	150
53.55360276	173
53.5737862	206
53.59396963	241
53.61415306	237
53.6343365	243
53.65451993	278
53.67470336	312
53.6948868	362
53.71507023	455
53.73525366	592
53.7554371	786
53.77562053	1090
53.79580396	1385
53.8159874	1960
53.83617083	2581
53.85635426	2984
53.8765377	3292
53.89672113	3102
53.91690456	2606
53.937088	2049
53.95727143	1769
53.97745487	1711
53.9976383	1842
54.01782173	1782
54.03800517	1665
54.0581886	1318
54.07837203	986
54.09855547	742
54.1187389	499
54.13892233	350
54.15910577	293
54.1792892	255
54.19947263	246
54.21965607	196
54.2398395	185
54.26002293	203
54.28020637	163
54.3003898	170
54.32057323	177
54.34075667	146
54.3609401	143
54.38112353	142
54.40130697	143
54.4214904	135
54.44167383	121
54.46185727	134
54.4820407	128
54.50222413	148
54.52240757	120
54.542591	134
54.56277443	128
54.58295787	137
54.6031413	128
54.62332473	119
54.64350817	135
54.6636916	138
54.68387503	166
54.70405847	175
54.7242419	175
54.74442533	222
54.76460877	233
54.7847922	223
54.80497563	241
54.82515907	260
54.8453425	281
54.86552593	323
54.88570937	409
54.9058928	486
54.92607623	661
54.94625967	877
54.9664431	1227
54.98662653	1686
55.00680997	2285
55.0269934	2835
55.04717683	3085
55.06736027	3119
55.0875437	2662
55.10772713	2074
55.12791057	1760
55.148094	1567
55.16827743	1668
55.18846087	1683
55.2086443	1707
55.22882773	1485
55.24901117	1157
55.2691946	785
55.28937803	517
55.30956147	373
55.3297449	328
55.34992833	233
55.37011177	228
55.3902952	201
55.41047864	206
55.43066207	160
55.4508455	139
55.47102894	143
55.49121237	132
55.5113958	138
55.53157924	103
55.55176267	103
55.5719461	84
55.59212954	113
55.61231297	96
55.6324964	102
55.65267984	97
55.67286327	100
55.6930467	80
55.71323014	101
55.73341357	96
55.753597	94
55.77378044	82
55.79396387	84
55.8141473	92
55.83433074	74
55.85451417	84
55.8746976	84
55.89488104	85
55.91506447	77
55.9352479	87
55.95543134	92
55.97561477	87
55.9957982	88
56.01598164	86
56.03616507	72
56.0563485	72
56.07653194	78
56.09671537	79
56.1168988	74
56.13708224	68
56.15726567	77
56.1774491	86
56.19763254	78
56.21781597	84
56.2379994	77
56.25818284	70
56.27836627	60
56.2985497	78
56.31873314	66
56.33891657	78
56.3591	68
56.37928344	77
56.39946687	64
56.4196503	68
56.43983374	64
56.46001717	72
56.4802006	87
56.50038404	75
56.52056747	71
56.5407509	63
56.56093434	88
56.58111777	80
56.6013012	85
56.62148464	68
56.64166807	80
56.6618515	79
56.68203494	78
56.70221837	74
56.7224018	77
56.74258524	76
56.76276867	60
56.7829521	61
56.80313554	77
56.82331897	68
56.8435024	72
56.86368584	67
56.88386927	57
56.90405271	65
56.92423614	61
56.94441957	72
56.96460301	76
56.98478644	66
57.00496987	71
57.02515331	76
57.04533674	70
57.06552017	70
57.08570361	75
57.10588704	62
57.12607047	75
57.14625391	70
57.16643734	72
57.18662077	65
57.20680421	61
57.22698764	63
57.24717107	76
57.26735451	64
57.28753794	72
57.30772137	60
57.32790481	54
57.34808824	72
57.36827167	72
57.38845511	64
57.40863854	78
57.42882197	68
57.44900541	79
57.46918884	68
57.48937227	62
57.50955571	71
57.52973914	57
57.54992257	58
57.57010601	63
57.59028944	72
57.61047287	64
57.63065631	67
57.65083974	71
57.67102317	61
57.69120661	47
57.71139004	53
57.73157347	55
57.75175691	67
57.77194034	59
57.79212377	63
57.81230721	77
57.83249064	58
57.85267407	56
57.87285751	57
57.89304094	70
57.91322437	64
57.93340781	75
57.95359124	59
57.97377467	71
57.99395811	65
58.01414154	61
58.03432497	63
58.05450841	71
58.07469184	73
58.09487527	65
58.11505871	66
58.13524214	67
58.15542557	49
58.17560901	61
58.19579244	72
58.21597587	57
58.23615931	52
58.25634274	66
58.27652617	67
58.29670961	74
58.31689304	62
58.33707648	59
58.35725991	54
58.37744334	64
58.39762678	64
58.41781021	67
58.43799364	55
58.45817708	63
58.47836051	81
58.49854394	59
58.51872738	65
58.53891081	63
58.55909424	67
58.57927768	55
58.59946111	59
58.61964454	60
58.63982798	67
58.66001141	48
58.68019484	60
58.70037828	70
58.72056171	51
58.74074514	68
58.76092858	63
58.78111201	67
58.80129544	64
58.82147888	56
58.84166231	64
58.86184574	60
58.88202918	73
58.90221261	59
58.92239604	64
58.94257948	58
58.96276291	56
58.98294634	61
59.00312978	62
59.02331321	52
59.04349664	72
59.06368008	60
59.08386351	56
59.10404694	66
59.12423038	60
59.14441381	53
59.16459724	64
59.18478068	69
59.20496411	55
59.22514754	50
59.24533098	56
59.26551441	61
59.28569784	60
59.30588128	60
59.32606471	52
59.34624814	68
59.36643158	58
59.38661501	53
59.40679844	41
59.42698188	62
59.44716531	57
59.46734874	68
59.48753218	67
59.50771561	61
59.52789904	52
59.54808248	53
59.56826591	47
59.58844934	57
59.60863278	58
59.62881621	63
59.64899964	46
59.66918308	62
59.68936651	54
59.70954994	55
59.72973338	59
59.74991681	56
59.77010025	52
59.79028368	57
59.81046711	57
59.83065055	56
59.85083398	70
59.87101741	72
59.89120085	64
59.91138428	52
59.93156771	64
59.95175115	59
59.97193458	57
59.99211801	56
60.01230145	46
60.03248488	57
60.05266831	59
60.07285175	56
60.09303518	59
60.11321861	55
60.13340205	69
60.15358548	55
60.17376891	54
60.19395235	65
60.21413578	65
60.23431921	52
60.25450265	51
60.27468608	72
60.29486951	70
60.31505295	82
60.33523638	69
60.35541981	64
60.37560325	37
60.39578668	62
60.41597011	67
60.43615355	59
60.45633698	61
60.47652041	73
60.49670385	50
60.51688728	75
60.53707071	64
60.55725415	77
60.57743758	53
60.59762101	52
60.61780445	64
60.63798788	57
60.65817131	54
60.67835475	72
60.69853818	48
60.71872161	86
60.73890505	65
60.75908848	76
60.77927191	65
60.79945535	67
60.81963878	68
60.83982221	56
60.86000565	63
60.88018908	67
60.90037251	61
60.92055595	69
60.94073938	65
60.96092281	73
60.98110625	62
61.00128968	58
61.02147311	69
61.04165655	70
61.06183998	75
61.08202341	72
61.10220685	68
61.12239028	62
61.14257371	64
61.16275715	71
61.18294058	62
61.20312402	77
61.22330745	56
61.24349088	64
61.26367432	70
61.28385775	60
61.30404118	51
61.32422462	69
61.34440805	79
61.36459148	60
61.38477492	71
61.40495835	77
61.42514178	85
61.44532522	75
61.46550865	66
61.48569208	64
61.50587552	67
61.52605895	59
61.54624238	59
61.56642582	73
61.58660925	72
61.60679268	77
61.62697612	75
61.64715955	74
61.66734298	66
61.68752642	95
61.70770985	71
61.72789328	78
61.74807672	73
61.76826015	74
61.78844358	65
61.80862702	98
61.82881045	91
61.84899388	74
61.86917732	110
61.88936075	107
61.90954418	107
61.92972762	118
61.94991105	130
61.97009448	147
61.99027792	201
62.01046135	258
62.03064478	302
62.05082822	423
62.07101165	473
62.09119508	541
62.11137852	517
62.13156195	447
62.15174538	385
62.17192882	310
62.19211225	287
62.21229568	292
62.23247912	337
62.25266255	353
62.27284598	325
62.29302942	324
62.31321285	290
62.33339628	226
62.35357972	205
62.37376315	206
62.39394658	182
62.41413002	189
62.43431345	190
62.45449688	216
62.47468032	240
62.49486375	318
62.51504718	340
62.53523062	401
62.55541405	594
62.57559748	771
62.59578092	1079
62.61596435	1406
62.63614779	1798
62.65633122	1978
62.67651465	2088
62.69669809	1979
62.71688152	1607
62.73706495	1225
62.75724839	1046
62.77743182	969
62.79761525	903
62.81779869	1136
62.83798212	1112
62.85816555	1114
62.87834899	925
62.89853242	783
62.91871585	507
62.93889929	385
62.95908272	284
62.97926615	199
62.99944959	184
63.01963302	155
63.03981645	137
63.05999989	111
63.08018332	113
63.10036675	116
63.12055019	114
63.14073362	88
63.16091705	85
63.18110049	83
63.20128392	104
63.22146735	84
63.24165079	82
63.26183422	76
63.28201765	73
63.30220109	66
63.32238452	61
63.34256795	85
63.36275139	81
63.38293482	70
63.40311825	65
63.42330169	74
63.44348512	63
63.46366855	64
63.48385199	52
63.50403542	68
63.52421885	64
63.54440229	63
63.56458572	64
63.58476915	74
63.60495259	63
63.62513602	54
63.64531945	62
63.66550289	53
63.68568632	67
63.70586975	69
63.72605319	69
63.74623662	72
63.76642005	68
63.78660349	72
63.80678692	60
63.82697035	59
63.84715379	60
63.86733722	57
63.88752065	57
63.90770409	63
63.92788752	60
63.94807095	57
63.96825439	57
63.98843782	59
64.00862125	67
64.02880469	55
64.04898812	74
64.06917156	58
64.08935499	50
64.10953842	57
64.12972186	51
64.14990529	64
64.17008872	58
64.19027216	60
64.21045559	57
64.23063902	78
64.25082246	57
64.27100589	58
64.29118932	58
64.31137276	52
64.33155619	56
64.35173962	58
64.37192306	64
64.39210649	49
64.41228992	68
64.43247336	65
64.45265679	47
64.47284022	60
64.49302366	59
64.51320709	61
64.53339052	49
64.55357396	59
64.57375739	56
64.59394082	51
64.61412426	59
64.63430769	55
64.65449112	59
64.67467456	50
64.69485799	52
64.71504142	57
64.73522486	61
64.75540829	59
64.77559172	47
64.79577516	55
64.81595859	62
64.83614202	48
64.85632546	51
64.87650889	47
64.89669232	57
64.91687576	62
64.93705919	58
64.95724262	45
64.97742606	53
64.99760949	58
65.01779292	44
65.03797636	59
65.05815979	64
65.07834322	63
65.09852666	57
65.11871009	48
65.13889352	61
65.15907696	57
65.17926039	58
65.19944382	59
65.21962726	57
65.23981069	51
65.25999412	58
65.28017756	52
65.30036099	55
65.32054442	58
65.34072786	63
65.36091129	42
65.38109472	47
65.40127816	46
65.42146159	53
65.44164502	48
65.46182846	47
65.48201189	47
65.50219533	45
65.52237876	52
65.54256219	56
65.56274563	54
65.58292906	59
65.60311249	49
65.62329593	47
65.64347936	48
65.66366279	40
65.68384623	52
65.70402966	45
65.72421309	65
65.74439653	53
65.76457996	47
65.78476339	53
65.80494683	46
65.82513026	51
65.84531369	43
65.86549713	55
65.88568056	51
65.90586399	50
65.92604743	50
65.94623086	53
65.96641429	51
65.98659773	58
66.00678116	63
66.02696459	53
66.04714803	56
66.06733146	53
66.08751489	50
66.10769833	52
66.12788176	46
66.14806519	64
66.16824863	66
66.18843206	52
66.20861549	45
66.22879893	62
66.24898236	58
66.26916579	44
66.28934923	54
66.30953266	67
66.32971609	63
66.34989953	44
66.37008296	52
66.39026639	60
66.41044983	51
66.43063326	47
66.45081669	52
66.47100013	49
66.49118356	56
66.51136699	47
66.53155043	52
66.55173386	51
66.57191729	51
66.59210073	59
66.61228416	53
66.63246759	48
66.65265103	49
66.67283446	58
66.69301789	54
66.71320133	51
66.73338476	57
66.75356819	55
66.77375163	47
66.79393506	46
66.81411849	55
66.83430193	56
66.85448536	61
66.87466879	53
66.89485223	53
66.91503566	54
66.93521909	48
66.95540253	49
66.97558596	50
66.9957694	55
67.01595283	53
67.03613626	45
67.0563197	60
67.07650313	55
67.09668656	53
67.11687	56
67.13705343	48
67.15723686	51
67.1774203	61
67.19760373	44
67.21778716	43
67.2379706	54
67.25815403	50
67.27833746	54
67.2985209	49
67.31870433	49
67.33888776	56
67.3590712	50
67.37925463	58
67.39943806	53
67.4196215	51
67.43980493	56
67.45998836	52
67.4801718	49
67.50035523	53
67.52053866	47
67.5407221	57
67.56090553	56
67.58108896	57
67.6012724	55
67.62145583	54
67.64163926	58
67.6618227	53
67.68200613	56
67.70218956	50
67.722373	45
67.74255643	54
67.76273986	55
67.7829233	54
67.80310673	57
67.82329016	52
67.8434736	59
67.86365703	50
67.88384046	60
67.9040239	51
67.92420733	64
67.94439076	56
67.9645742	61
67.98475763	56
68.00494106	67
68.0251245	49
68.04530793	57
68.06549136	69
68.0856748	53
68.10585823	62
68.12604166	49
68.1462251	60
68.16640853	64
68.18659196	61
68.2067754	54
68.22695883	69
68.24714226	58
68.2673257	73
68.28750913	73
68.30769256	72
68.327876	84
68.34805943	75
68.36824286	86
68.3884263	92
68.40860973	94
68.42879317	79
68.4489766	75
68.46916003	94
68.48934347	120
68.5095269	115
68.52971033	96
68.54989377	133
68.5700772	148
68.59026063	167
68.61044407	238
68.6306275	298
68.65081093	358
68.67099437	518
68.6911778	642
68.71136123	747
68.73154467	850
68.7517281	838
68.77191153	757
68.79209497	635
68.8122784	517
68.83246183	453
68.85264527	373
68.8728287	364
68.89301213	409
68.91319557	433
68.933379	471
68.95356243	437
68.97374587	423
68.9939293	320
69.01411273	230
69.03429617	193
69.0544796	139
69.07466303	120
69.09484647	95
69.1150299	84
69.13521333	79
69.15539677	81
69.1755802	78
69.19576363	81
69.21594707	75
69.2361305	70
69.25631393	63
69.27649737	58
69.2966808	51
69.31686423	57
69.33704767	62
69.3572311	46
69.37741453	60
69.39759797	65
69.4177814	57
69.43796483	47
69.45814827	67
69.4783317	51
69.49851513	57
69.51869857	41
69.538882	58
69.55906543	50
69.57924887	55
69.5994323	49
69.61961573	50
69.63979917	54
69.6599826	55
69.68016603	59
69.70034947	50
69.7205329	64
69.74071633	71
69.76089977	55
69.7810832	51
69.80126663	60
69.82145007	62
69.8416335	65
69.86181694	74
69.88200037	80
69.9021838	88
69.92236724	78
69.94255067	74
69.9627341	85
69.98291754	73
70.00310097	95
70.0232844	101
70.04346784	104
70.06365127	144
70.0838347	107
70.10401814	159
70.12420157	178
70.144385	226
70.16456844	298
70.18475187	444
70.2049353	555
70.22511874	734
70.24530217	794
70.2654856	909
70.28566904	886
70.30585247	775
70.3260359	660
70.34621934	488
70.36640277	404
70.3865862	395
70.40676964	376
70.42695307	450
70.4471365	506
70.46731994	509
70.48750337	479
70.5076868	412
70.52787024	323
70.54805367	225
70.5682371	182
70.58842054	143
70.60860397	123
70.6287874	108
70.64897084	97
70.66915427	86
70.6893377	70
70.70952114	75
70.72970457	75
70.749888	61
70.77007144	69
70.79025487	62
70.8104383	58
70.83062174	59
70.85080517	43
70.8709886	59
70.89117204	57
70.91135547	51
70.9315389	51
70.95172234	48
70.97190577	55
70.9920892	44
71.01227264	50
71.03245607	47
71.0526395	46
71.07282294	42
71.09300637	38
71.1131898	45
71.13337324	39
71.15355667	49
71.1737401	46
71.19392354	38
71.21410697	58
71.2342904	44
71.25447384	54
71.27465727	43
71.29484071	59
71.31502414	40
71.33520757	56
71.35539101	50
71.37557444	50
71.39575787	41
71.41594131	47
71.43612474	42
71.45630817	37
71.47649161	44
71.49667504	40
71.51685847	46
71.53704191	34
71.55722534	49
71.57740877	52
71.59759221	43
71.61777564	44
71.63795907	51
71.65814251	46
71.67832594	47
71.69850937	50
71.71869281	55
71.73887624	44
71.75905967	53
71.77924311	45
71.79942654	38
71.81960997	53
71.83979341	46
71.85997684	54
71.88016027	44
71.90034371	51
71.92052714	45
71.94071057	47
71.96089401	46
71.98107744	55
72.00126087	45
72.02144431	40
72.04162774	50
72.06181117	45
72.08199461	46
72.10217804	43
72.12236147	34
72.14254491	45
72.16272834	42
72.18291177	57
72.20309521	45
72.22327864	48
72.24346207	51
72.26364551	55
72.28382894	58
72.30401237	59
72.32419581	54
72.34437924	49
72.36456267	40
72.38474611	58
72.40492954	50
72.42511297	46
72.44529641	44
72.46547984	48
72.48566327	41
72.50584671	56
72.52603014	55
72.54621357	61
72.56639701	45
72.58658044	46
72.60676387	49
72.62694731	48
72.64713074	50
72.66731417	51
72.68749761	56
72.70768104	56
72.72786448	46
72.74804791	47
72.76823134	43
72.78841478	46
72.80859821	51
72.82878164	51
72.84896508	52
72.86914851	50
72.88933194	35
72.90951538	45
72.92969881	47
72.94988224	45
72.97006568	39
72.99024911	31
73.01043254	48
73.03061598	49
73.05079941	48
73.07098284	47
73.09116628	46
73.11134971	54
73.13153314	55
73.15171658	47
73.17190001	46
73.19208344	48
73.21226688	49
73.23245031	54
73.25263374	45
73.27281718	51
73.29300061	53
73.31318404	58
73.33336748	43
73.35355091	56
73.37373434	43
73.39391778	42
73.41410121	37
73.43428464	52
73.45446808	47
73.47465151	58
73.49483494	48
73.51501838	36
73.53520181	58
73.55538524	56
73.57556868	44
73.59575211	45
73.61593554	47
73.63611898	42
73.65630241	41
73.67648584	60
73.69666928	50
73.71685271	49
73.73703614	63
73.75721958	63
73.77740301	48
73.79758644	50
73.81776988	59
73.83795331	54
73.85813674	49
73.87832018	59
73.89850361	60
73.91868704	67
73.93887048	69
73.95905391	72
73.97923734	82
73.99942078	117
74.01960421	127
74.03978764	113
74.05997108	106
74.08015451	93
74.10033794	80
74.12052138	78
74.14070481	66
74.16088825	80
74.18107168	63
74.20125511	64
74.22143855	69
74.24162198	94
74.26180541	71
74.28198885	82
74.30217228	73
74.32235571	56
74.34253915	65
74.36272258	70
74.38290601	52
74.40308945	52
74.42327288	50
74.44345631	56
74.46363975	56
74.48382318	68
74.50400661	67
74.52419005	63
74.54437348	63
74.56455691	64
74.58474035	72
74.60492378	85
74.62510721	82
74.64529065	80
74.66547408	91
74.68565751	80
74.70584095	87
74.72602438	89
74.74620781	90
74.76639125	115
74.78657468	106
74.80675811	141
74.82694155	154
74.84712498	177
74.86730841	202
74.88749185	327
74.90767528	348
74.92785871	439
74.94804215	591
74.96822558	767
74.98840901	966
75.00859245	1171
75.02877588	1220
75.04895931	1228
75.06914275	1062
75.08932618	816
75.10950961	641
75.12969305	526
75.14987648	461
75.17005991	469
75.19024335	513
75.21042678	579
75.23061021	666
75.25079365	639
75.27097708	620
75.29116051	515
75.31134395	410
75.33152738	318
75.35171081	209
75.37189425	183
75.39207768	126
75.41226111	123
75.43244455	126
75.45262798	95
75.47281141	86
75.49299485	85
75.51317828	84
75.53336171	74
75.55354515	62
75.57372858	76
75.59391202	75
75.61409545	66
75.63427888	61
75.65446232	65
75.67464575	64
75.69482918	68
75.71501262	64
75.73519605	64
75.75537948	63
75.77556292	63
75.79574635	62
75.81592978	67
75.83611322	74
75.85629665	90
75.87648008	104
75.89666352	114
75.91684695	154
75.93703038	193
75.95721382	238
75.97739725	276
75.99758068	352
76.01776412	373
76.03794755	363
76.05813098	360
76.07831442	243
76.09849785	211
76.11868128	147
76.13886472	165
76.15904815	152
76.17923158	179
76.19941502	173
76.21959845	207
76.23978188	235
76.25996532	206
76.28014875	168
76.30033218	148
76.32051562	119
76.34069905	98
76.36088248	83
76.38106592	65
76.40124935	68
76.42143278	44
76.44161622	58
76.46179965	68
76.48198308	48
76.50216652	46
76.52234995	37
76.54253338	51
76.56271682	48
76.58290025	40
76.60308368	51
76.62326712	38
76.64345055	49
76.66363398	48
76.68381742	37
76.70400085	46
76.72418428	46
76.74436772	60
76.76455115	46
76.78473458	42
76.80491802	43
76.82510145	43
76.84528488	41
76.86546832	44
76.88565175	42
76.90583518	40
76.92601862	34
76.94620205	44
76.96638548	45
76.98656892	57
77.00675235	29
77.02693578	48
77.04711922	40
77.06730265	38
77.08748609	42
77.10766952	54
77.12785295	33
77.14803639	46
77.16821982	46
77.18840325	39
77.20858669	45
77.22877012	43
77.24895355	42
77.26913699	46
77.28932042	42
77.30950385	51
77.32968729	38
77.34987072	24
77.37005415	45
77.39023759	41
77.41042102	43
77.43060445	36
77.45078789	44
77.47097132	41
77.49115475	41
77.51133819	38
77.53152162	40
77.55170505	44
77.57188849	37
77.59207192	37
77.61225535	34
77.63243879	39
77.65262222	44
77.67280565	35
77.69298909	45
77.71317252	48
77.73335595	43
77.75353939	54
77.77372282	37
77.79390625	41
77.81408969	34
77.83427312	40
77.85445655	40
77.87463999	37
77.89482342	52
77.91500685	42
77.93519029	34
77.95537372	50
77.97555715	46
77.99574059	38
78.01592402	38
78.03610745	34
78.05629089	34
78.07647432	41
78.09665775	44
78.11684119	52
78.13702462	42
78.15720805	45
78.17739149	44
78.19757492	42
78.21775835	30
78.23794179	33
78.25812522	44
78.27830865	38
78.29849209	46
78.31867552	39
78.33885895	41
78.35904239	40
78.37922582	42
78.39940925	48
78.41959269	39
78.43977612	41
78.45995955	44
78.48014299	43
78.50032642	38
78.52050986	35
78.54069329	40
78.56087672	42
78.58106016	43
78.60124359	45
78.62142702	40
78.64161046	37
78.66179389	31
78.68197732	43
78.70216076	40
78.72234419	52
78.74252762	41
78.76271106	34
78.78289449	41
78.80307792	33
78.82326136	34
78.84344479	50
78.86362822	39
78.88381166	38
78.90399509	54
78.92417852	32
78.94436196	31
78.96454539	48
78.98472882	39
79.00491226	32
79.02509569	37
79.04527912	31
79.06546256	44
79.08564599	42
79.10582942	41
79.12601286	39
79.14619629	41
79.16637972	36
79.18656316	38
79.20674659	41
79.22693002	26
79.24711346	44
79.26729689	38
79.28748032	42
79.30766376	40
79.32784719	31
79.34803062	42
79.36821406	47
79.38839749	51
79.40858092	45
79.42876436	44
79.44894779	47
79.46913122	44
79.48931466	48
79.50949809	38
79.52968152	45
79.54986496	48
79.57004839	46
79.59023182	44
79.61041526	39
79.63059869	58
79.65078212	40
79.67096556	38
79.69114899	47
79.71133242	33
79.73151586	38
79.75169929	35
79.77188272	54
79.79206616	48
79.81224959	41
79.83243302	48
79.85261646	37
79.87279989	29
79.89298332	37
79.91316676	42
79.93335019	50
79.95353363	32
79.97371706	35
79.99390049	31
80.01408393	39
80.03426736	39
80.05445079	39
80.07463423	37
80.09481766	45
80.11500109	42
80.13518453	40
80.15536796	38
80.17555139	42
80.19573483	47
80.21591826	50
80.23610169	37
80.25628513	35
80.27646856	39
80.29665199	46
80.31683543	46
80.33701886	50
80.35720229	33
80.37738573	41
80.39756916	39
80.41775259	39
80.43793603	36
80.45811946	36
80.47830289	47
80.49848633	41
80.51866976	54
80.53885319	45
80.55903663	46
80.57922006	55
80.59940349	48
80.61958693	61
80.63977036	62
80.65995379	59
80.68013723	77
80.70032066	72
80.72050409	73
80.74068753	76
80.76087096	76
80.78105439	78
80.80123783	49
80.82142126	55
80.84160469	49
80.86178813	60
80.88197156	57
80.90215499	49
80.92233843	57
80.94252186	78
80.96270529	64
80.98288873	62
81.00307216	46
81.02325559	56
81.04343903	54
81.06362246	45
81.08380589	54
81.10398933	48
81.12417276	51
81.14435619	43
81.16453963	37
81.18472306	46
81.20490649	35
81.22508993	41
81.24527336	42
81.26545679	31
81.28564023	39
81.30582366	48
81.32600709	40
81.34619053	50
81.36637396	46
81.3865574	35
81.40674083	43
81.42692426	32
81.4471077	48
81.46729113	38
81.48747456	40
81.507658	41
81.52784143	46
81.54802486	32
81.5682083	35
81.58839173	51
81.60857516	42
81.6287586	32
81.64894203	43
81.66912546	43
81.6893089	36
81.70949233	44
81.72967576	37
81.7498592	47
81.77004263	45
81.79022606	48
81.8104095	42
81.83059293	41
81.85077636	48
81.8709598	48
81.89114323	38
81.91132666	42
81.9315101	65
81.95169353	44
81.97187696	51
81.9920604	60
82.01224383	70
82.03242726	62
82.0526107	78
82.07279413	86
82.09297756	106
82.113161	103
82.13334443	106
82.15352786	112
82.1737113	108
82.19389473	96
82.21407816	87
82.2342616	79
82.25444503	70
82.27462846	59
82.2948119	78
82.31499533	83
82.33517876	84
82.3553622	79
82.37554563	89
82.39572906	104
82.4159125	110
82.43609593	103
82.45627936	105
82.4764628	127
82.49664623	99
82.51682966	170
82.5370131	199
82.55719653	217
82.57737996	308
82.5975634	366
82.61774683	472
82.63793026	493
82.6581137	544
82.67829713	498
82.69848056	436
82.718664	326
82.73884743	294
82.75903086	232
82.7792143	225
82.79939773	181
82.81958117	196
82.8397646	260
82.85994803	249
82.88013147	244
82.9003149	302
82.92049833	278
82.94068177	272
82.9608652	251
82.98104863	200
83.00123207	169
83.0214155	137
83.04159893	175
83.06178237	176
83.0819658	199
83.10214923	227
83.12233267	260
83.1425161	240
83.16269953	237
83.18288297	200
83.2030664	163
83.22324983	130
83.24343327	114
83.2636167	118
83.28380013	87
83.30398357	121
83.324167	104
83.34435043	114
83.36453387	135
83.3847173	137
83.40490073	146
83.42508417	126
83.4452676	103
83.46545103	104
83.48563447	76
83.5058179	73
83.52600133	58
83.54618477	53
83.5663682	55
83.58655163	57
83.60673507	49
83.6269185	41
83.64710193	35
83.66728537	44
83.6874688	46
83.70765223	43
83.72783567	47
83.7480191	33
83.76820253	38
83.78838597	33
83.8085694	39
83.82875283	32
83.84893627	32
83.8691197	37
83.88930313	32
83.90948657	36
83.92967	35
83.94985343	32
83.97003687	40
83.9902203	38
84.01040373	42
84.03058717	44
84.0507706	44
84.07095403	45
84.09113747	48
84.1113209	37
84.13150433	32
84.15168777	28
84.1718712	42
84.19205463	36
84.21223807	22
84.2324215	37
84.25260494	40
84.27278837	34
84.2929718	33
84.31315524	27
84.33333867	34
84.3535221	36
84.37370554	34
84.39388897	42
84.4140724	27
84.43425584	44
84.45443927	38
84.4746227	36
84.49480614	33
84.51498957	31
84.535173	34
84.55535644	36
84.57553987	33
84.5957233	36
84.61590674	35
84.63609017	35
84.6562736	41
84.67645704	29
84.69664047	34
84.7168239	39
84.73700734	34
84.75719077	24
84.7773742	31
84.79755764	21
84.81774107	44
84.8379245	36
84.85810794	24
84.87829137	37
84.8984748	31
84.91865824	29
84.93884167	28
84.9590251	40
84.97920854	24
84.99939197	33
85.0195754	29
85.03975884	38
85.05994227	31
85.0801257	31
85.10030914	38
85.12049257	28
85.140676	43
85.16085944	33
85.18104287	31
85.2012263	25
85.22140974	30
85.24159317	31
85.2617766	33
85.28196004	30
85.30214347	29
85.3223269	35
85.34251034	39
85.36269377	37
85.3828772	33
85.40306064	30
85.42324407	28
85.4434275	26
85.46361094	23
85.48379437	33
85.5039778	33
85.52416124	36
85.54434467	27
85.5645281	33
85.58471154	30
85.60489497	29
85.6250784	23
85.64526184	26
85.66544527	36
85.68562871	23
85.70581214	27
85.72599557	36
85.74617901	25
85.76636244	30
85.78654587	28
85.80672931	39
85.82691274	35
85.84709617	24
85.86727961	39
85.88746304	29
85.90764647	27
85.92782991	35
85.94801334	31
85.96819677	40
85.98838021	37
86.00856364	35
86.02874707	36
86.04893051	34
86.06911394	48
86.08929737	30
86.10948081	31
86.12966424	30
86.14984767	26
86.17003111	42
86.19021454	32
86.21039797	28
86.23058141	34
86.25076484	27
86.27094827	29
86.29113171	34
86.31131514	32
86.33149857	30
86.35168201	37
86.37186544	30
86.39204887	32
86.41223231	38
86.43241574	25
86.45259917	37
86.47278261	30
86.49296604	24
86.51314947	27
86.53333291	27
86.55351634	32
86.57369977	22
86.59388321	27
86.61406664	28
86.63425007	26
86.65443351	24
86.67461694	30
86.69480037	28
86.71498381	23
86.73516724	27
86.75535067	33
86.77553411	24
86.79571754	29
86.81590097	26
86.83608441	37
86.85626784	21
86.87645127	34
86.89663471	29
86.91681814	30
86.93700157	35
86.95718501	35
86.97736844	36
86.99755187	34
87.01773531	29
87.03791874	35
87.05810217	28
87.07828561	35
87.09846904	25
87.11865247	28
87.13883591	39
87.15901934	36
87.17920278	36
87.19938621	29
87.21956964	25
87.23975308	24
87.25993651	38
87.28011994	32
87.30030338	40
87.32048681	24
87.34067024	33
87.36085368	32
87.38103711	32
87.40122054	28
87.42140398	34
87.44158741	33
87.46177084	36
87.48195428	23
87.50213771	36
87.52232114	34
87.54250458	23
87.56268801	26
87.58287144	27
87.60305488	27
87.62323831	32
87.64342174	34
87.66360518	28
87.68378861	32
87.70397204	21
87.72415548	27
87.74433891	25
87.76452234	37
87.78470578	31
87.80488921	26
87.82507264	23
87.84525608	23
87.86543951	27
87.88562294	26
87.90580638	28
87.92598981	33
87.94617324	29
87.96635668	25
87.98654011	29
88.00672354	26
88.02690698	29
88.04709041	25
88.06727384	27
88.08745728	27
88.10764071	23
88.12782414	24
88.14800758	32
88.16819101	29
88.18837444	25
88.20855788	29
88.22874131	38
88.24892474	28
88.26910818	27
88.28929161	21
88.30947504	32
88.32965848	30
88.34984191	27
88.37002534	29
88.39020878	29
88.41039221	28
88.43057564	27
88.45075908	34
88.47094251	32
88.49112594	31
88.51130938	28
88.53149281	27
88.55167624	23
88.57185968	24
88.59204311	24
88.61222655	32
88.63240998	25
88.65259341	25
88.67277685	33
88.69296028	42
88.71314371	25
88.73332715	34
88.75351058	32
88.77369401	27
88.79387745	25
88.81406088	22
88.83424431	27
88.85442775	38
88.87461118	27
88.89479461	29
88.91497805	31
88.93516148	25
88.95534491	28
88.97552835	19
88.99571178	32
89.01589521	29
89.03607865	30
89.05626208	28
89.07644551	28
89.09662895	29
89.11681238	33
89.13699581	23
89.15717925	28
89.17736268	36
89.19754611	34
89.21772955	27
89.23791298	27
89.25809641	23
89.27827985	20
89.29846328	26
89.31864671	26
89.33883015	30
89.35901358	27
89.37919701	23
89.39938045	34
89.41956388	34
89.43974731	26
89.45993075	21
89.48011418	33
89.50029761	22
89.52048105	30
89.54066448	28
89.56084791	24
89.58103135	37
89.60121478	28
89.62139821	26
89.64158165	30
89.66176508	29
89.68194851	25
89.70213195	19
89.72231538	35
89.74249881	32
89.76268225	33
89.78286568	29
89.80304911	25
89.82323255	36
89.84341598	26
89.86359941	21
89.88378285	24
89.90396628	24
89.92414971	29